# folder, Pressure [Pa], Abs. Loading [mol/kg framework], Abs. Loading [cm^3 (STP)/g framework], Error [mol/kg], Error [cm^3/g]
0 1 0.0000060938 0.0001365871 6.15567e-06 0.000139404
1 1.38929 0.0000084753 0.0001899660 8.56135e-06 0.000193883
2 1.93048 0.0000123278 0.0002763141 1.2453e-05 0.000282012
3 2.68247 0.0000168806 0.0003783620 1.7052e-05 0.000386164
4 3.72739 0.0000245855 0.0005510583 2.48351e-05 0.000562422
5 5.17935 0.0000337613 0.0007567240 3.41041e-05 0.000772328
6 7.19574 0.0000500115 0.0011209562 5.05192e-05 0.00114407
7 9.99874 0.0000679428 0.0015228677 6.86326e-05 0.00155427
8 13.8936 0.0000906371 0.0020315370 9.15573e-05 0.00207343
9 19.3057 0.0001274803 0.0028573395 0.000128775 0.00291626
10 26.8259 0.0001810640 0.0040583640 0.000182902 0.00414205
11 37.2697 0.0002527892 0.0056660100 0.000255356 0.00578285
12 51.7876 0.0003481892 0.0078043046 0.000351724 0.00796524
13 71.9607 0.0004870166 0.0109159787 0.000491961 0.0111411
14 99.992 0.0006759256 0.0151501790 0.000682788 0.0154626
15 138.942 0.0009400619 0.0210705236 0.000949606 0.021505
16 193.066 0.0013171793 0.0295232245 0.00133055 0.030132
17 268.226 0.0018186250 0.0407626163 0.00183709 0.0416032
18 372.71 0.0025284519 0.0566726592 0.00255412 0.0578413
19 517.894 0.0035290318 0.0790996341 0.00356486 0.0807307
20 719.632 0.0048979737 0.1097830639 0.0049477 0.600091
21 999.955 0.0068120688 0.1526855449 0.00688123 0.155834
22 1389.25 0.0095002212 0.2129377283 0.00959667 0.607451
23 1930.41 0.0131681505 0.2951506064 0.0133018 1.60083
24 2682.38 0.0181834481 0.4075633647 0.0183681 0.415968
25 3727.26 0.0252516682 0.5659902779 0.025508 1.31708
26 5179.17 0.0350949654 0.7866177034 0.0354513 1.08609
27 7196.64 0.0485466544 1.0881235351 0.0490395 1.28266
28 9998.4 0.0672324588 1.5069467012 0.067915 1.53406
29 13893.1 0.0928518585 2.0811793045 0.0937945 2.84057
30 19305 0.1281812615 2.8730516865 0.129483 2.89652
31 26825 0.1762210068 3.9498133724 0.17801 4.44112
32 37274.3 0.2414383669 5.4115937006 0.24389 3.74978
33 51785.2 0.3281893143 7.3560273324 0.331521 4.21031
34 71957.4 0.4449079291 9.9721555326 0.449425 5.58629
35 99987.5 0.5976875575 13.3965544174 0.573267 6.43937
36 138936 0.7907377797 17.7235774176 0.633001 7.11867
37 193057 1.0322202044 23.1361586272 0.676201 6.79378
38 268259 1.3223288536 29.6386468542 0.675399 9.00936
39 372697 1.6605717375 37.2200146522 0.717828 10.7837
40 517875 2.0269391484 45.4317649138 0.702296 11.1199
41 719607 2.4172513446 54.1802130140 0.772162 10.3791
42 999919 2.7996171779 62.7505515280 0.774304 10.0666
43 1.38942e+06 3.1619952971 70.8728859041 0.744284 9.45192
44 1.93035e+06 3.5045632641 78.5511960081 0.792148 10.5697
45 2.68229e+06 3.8151982665 85.5137614172 0.677792 8.2502
46 3.72713e+06 4.1160136465 92.2562300495 0.675903 10.3853
47 5.17899e+06 4.4022607645 98.6721660104 0.653371 8.23639
48 7.19639e+06 4.6796840071 104.8903238417 0.703106 8.03135
49 9.99984e+06 4.9489140514 110.9248395240 0.681842 9.39272
