# folder, Pressure [Pa], Abs. Loading [mol/kg framework], Abs. Loading [cm^3 (STP)/g framework], Error [mol/kg], Error [cm^3/g]
0 1 0.0003365095 0.0075425161 0.000339926 0.00769805
1 1.38929 0.0004773793 0.0106999691 0.000482226 0.0109206
2 1.93048 0.0006749254 0.0151277607 0.000681778 0.0154397
3 2.68247 0.0010107045 0.0226539069 0.00102097 0.023121
4 3.72739 0.0013963239 0.0312971694 0.0014105 0.0319425
5 5.17935 0.0019455810 0.0436082065 0.00196533 0.0445074
6 7.19574 0.0028321345 0.0634793934 0.00286089 0.0647884
7 9.99874 0.0040066682 0.0898053644 0.00404735 0.0916572
8 13.8936 0.0052039927 0.1166421663 0.00525683 0.60001
9 19.3057 0.0072142100 0.1616991270 0.00728745 0.834498
10 26.8259 0.0097421556 0.2183604385 0.00984106 0.222863
11 37.2697 0.0135557675 0.3038386432 0.0136934 0.628653
12 51.7876 0.0188523979 0.4225571896 0.0190438 0.997034
13 71.9607 0.0265476233 0.5950377843 0.0268171 1.12862
14 99.992 0.0387447797 0.8684245525 0.0391381 1.31641
15 138.942 0.0467841571 1.0486189630 0.0472591 2.97649
16 193.066 0.0708028404 1.5869731473 0.0715217 1.55812
17 268.226 0.0941104226 2.1093887303 0.0950659 2.38691
18 372.71 0.1361170273 3.0509237489 0.137499 2.8576
19 517.894 0.1826909427 4.0948303585 0.184546 3.02552
20 719.632 0.2045254756 4.5842290499 0.206602 3.413
21 999.955 0.3092388060 6.9312710973 0.312378 4.07243
22 1389.25 0.3927467249 8.8030155667 0.396734 5.81511
23 1930.41 0.5118103132 11.4717039481 0.517006 5.35602
24 2682.38 0.5745201872 12.8772815414 0.569775 6.63523
25 3727.26 0.7790646202 17.4619355035 0.726777 5.83144
26 5179.17 0.9184304458 20.5856777371 0.60452 6.91861
27 7196.64 0.9722356215 21.7916656416 0.708473 6.12543
28 9998.4 1.1193787673 25.0897285417 0.517059 7.30778
29 13893.1 1.2629298436 28.3072788851 0.507329 5.31677
30 19305 1.3934469644 31.2326864666 0.408238 6.97238
31 26825 1.5336125981 34.3743555808 0.574454 7.76124
32 37274.3 1.6497517030 36.9774946605 0.622902 7.07789
33 51785.2 1.8339021720 41.1050388056 0.691301 8.41157
34 71957.4 2.0919930747 46.8898820394 0.695978 9.06419
35 99987.5 2.4205585289 54.2543401617 0.772679 10.0833
36 138936 2.8116239848 63.0196718070 0.73501 12.8953
37 193057 3.2421956692 72.6704950988 0.746744 11.177
38 268259 3.7167561418 83.3072820217 0.792191 10.6992
39 372697 4.3435366059 97.3559241427 0.756244 13.0439
40 517875 4.8026511322 107.6465060012 0.689824 12.4906
41 719607 5.2719865544 118.1661787726 0.725209 11.7414
42 999919 5.6938806052 127.6225017948 0.752505 9.47465
43 1.38942e+06 5.9577354494 133.5365378730 0.551545 10.371
44 1.93035e+06 6.3479957712 142.2838232605 0.738324 9.2098
45 2.68229e+06 6.6326504863 148.6640671432 0.704187 10.3243
46 3.72713e+06 6.8918801595 154.4744347495 0.616292 6.80744
47 5.17899e+06 7.1224052499 159.6414185359 0.58783 8.24642
48 7.19639e+06 7.2036243846 161.4618622512 0.728381 8.47725
49 9.99984e+06 7.4335359390 166.6150942548 0.437937 4.25423
