# folder, Pressure [Pa], Abs. Loading [mol/kg framework], Abs. Loading [cm^3 (STP)/g framework], Error [mol/kg], Error [cm^3/g]
0 1 0.0006452462 0.0144625336 0.000651797 0.0147608
1 1.38929 0.0009035689 0.0202525709 0.000912742 0.0206702
2 1.93048 0.0012200281 0.0273456806 0.00123241 0.0279096
3 2.68247 0.0017441681 0.0390937417 0.00176188 0.0398999
4 3.72739 0.0023759659 0.0532548417 0.00240009 0.054353
5 5.17935 0.0034016216 0.0762438646 0.00343616 0.84731
6 7.19574 0.0045481034 0.1019410801 0.00459428 0.600283
7 9.99874 0.0062910808 0.1410081324 0.00635495 0.600383
8 13.8936 0.0091887351 0.2059560863 0.00928202 0.60638
9 19.3057 0.0124489377 0.2790301880 0.0125753 0.621566
10 26.8259 0.0172942383 0.3876326369 0.0174698 1.12645
11 37.2697 0.0234097185 0.5247048627 0.0236474 0.880019
12 51.7876 0.0331618183 0.7432881914 0.0334985 1.65865
13 71.9607 0.0449797988 1.0081761190 0.0454365 1.19484
14 99.992 0.0618704429 1.3867626076 0.0624986 2.16029
15 138.942 0.0845687936 1.8955228882 0.0854274 2.44075
16 193.066 0.1166050733 2.6135832841 0.117789 2.74105
17 268.226 0.1547371508 3.4682747451 0.156308 3.52292
18 372.71 0.2068554239 4.6364524541 0.208956 3.59839
19 517.894 0.2759780227 6.1857647077 0.27878 4.7092
20 719.632 0.3557452933 7.9736663761 0.359357 4.94139
21 999.955 0.4551294645 10.2012607784 0.45975 4.84857
22 1389.25 0.5684930369 12.7421891419 0.571825 5.51379
23 1930.41 0.6940248804 15.5558568366 0.654328 6.35295
24 2682.38 0.8185197209 18.3462811739 0.735281 6.36576
25 3727.26 0.9485033572 21.2597312445 0.543697 8.43225
26 5179.17 1.0663020519 23.9000683317 0.63042 6.67663
27 7196.64 1.1854733309 26.5711704871 0.480575 6.51369
28 9998.4 1.2969416501 29.0696186906 0.393739 4.48224
29 13893.1 1.4071196169 31.5391449670 0.493132 6.09311
30 19305 1.5310046535 34.3159011738 0.532845 5.77622
31 26825 1.6720459416 37.4771971831 0.636148 7.53668
32 37274.3 1.8495837074 41.4565243602 0.712898 6.61819
33 51785.2 2.0769670254 46.5530885355 0.740059 7.36701
34 71957.4 2.3737531887 53.2052464014 0.721246 13.9132
35 99987.5 2.7547858026 61.7457021685 0.780641 13.2451
36 138936 3.2254108429 72.2942804080 0.894478 13.8571
37 193057 3.7430253172 83.8960786822 0.842056 11.4107
38 268259 4.2942075854 96.2502646750 0.726445 12.0304
39 372697 4.8199423422 108.0340707628 0.757242 10.9539
40 517875 5.2899420988 118.5686339093 0.755958 12.6815
41 719607 5.7091696899 127.9651909675 0.751973 11.6011
42 999919 6.0637254943 135.9121961685 0.726742 8.233
43 1.38942e+06 6.3708237599 142.7954892471 0.707833 7.10607
44 1.93035e+06 6.6420213429 148.8741052950 0.648908 9.77276
45 2.68229e+06 6.8904568351 154.4425323927 0.683684 10.4985
46 3.72713e+06 7.1145504620 159.4653615103 0.479366 5.88972
47 5.17899e+06 7.3240526422 164.1611382974 0.651329 7.40297
48 7.19639e+06 7.5136705636 168.4112297876 0.51673 5.4087
49 9.99984e+06 7.6883237733 172.3259025946 0.667102 9.00408
