# folder, Pressure [Pa], Abs. Loading [mol/kg framework], Abs. Loading [cm^3 (STP)/g framework], Error [mol/kg], Error [cm^3/g]
0 1 0.0011880219 0.0266282952 0.00120008 0.0271774
1 1.38929 0.0016394849 0.0367473737 0.00165613 0.0375051
2 1.93048 0.0022547420 0.0505377327 0.00227763 0.0515799
3 2.68247 0.0030869052 0.0691898191 0.00311825 0.848759
4 3.72739 0.0041819673 0.0937345141 0.00422442 0.0956674
5 5.17935 0.0059300188 0.1329152965 0.00599022 0.135656
6 7.19574 0.0077803327 0.1743881892 0.00785932 0.602562
7 9.99874 0.0111896265 0.2508040159 0.0113032 1.00121
8 13.8936 0.0152409982 0.3416113648 0.0153957 0.837111
9 19.3057 0.0212176829 0.4755726294 0.0214331 1.50198
10 26.8259 0.0283623912 0.6357139474 0.0286503 1.58869
11 37.2697 0.0420648844 0.9428412980 0.042492 1.27375
12 51.7876 0.0578040292 1.2956181097 0.0583909 1.43358
13 71.9607 0.0768963319 1.7235525174 0.077677 1.88992
14 99.992 0.1024130375 2.2954833399 0.103453 2.38764
15 138.942 0.1407059477 3.1537796985 0.142134 3.01527
16 193.066 0.1786711325 4.0047304310 0.180485 4.01286
17 268.226 0.2628841789 5.8922796095 0.265553 3.90255
18 372.71 0.3326992088 7.4571119978 0.336077 5.80238
19 517.894 0.4323985287 9.6917701359 0.436788 4.8072
20 719.632 0.5402404780 12.1089369720 0.539672 5.91964
21 999.955 0.6529962008 14.6362410069 0.615551 4.84466
22 1389.25 0.8030508205 17.9995616148 0.696333 5.63089
23 1930.41 0.9104578574 20.4069803353 0.771071 6.89877
24 2682.38 1.0154204678 22.7596097388 0.615564 4.64261
25 3727.26 1.1436169116 25.6330017219 0.507422 5.52988
26 5179.17 1.2518596594 28.0591520449 0.355111 4.40939
27 7196.64 1.3419986661 30.0795255563 0.392068 4.59743
28 9998.4 1.4375240891 32.2206300693 0.441966 3.94482
29 13893.1 1.5556311622 34.8678791421 0.557212 6.14439
30 19305 1.6820596706 37.7016446621 0.6444 5.93773
31 26825 1.8383054388 41.2037335216 0.76995 7.80471
32 37274.3 2.0472200970 45.8863416036 0.748774 7.41774
33 51785.2 2.3311993564 52.2514458362 0.725217 10.2444
34 71957.4 2.7419033212 61.4569545434 0.725345 9.75392
35 99987.5 3.1976322618 71.6716519648 0.871938 9.52898
36 138936 3.7248967613 83.4897456706 0.692921 9.17363
37 193057 4.3080468118 96.5604567582 0.675531 9.97379
38 268259 4.8268774289 108.1895136290 0.861196 11.1387
39 372697 5.3500272154 119.9153802539 0.852688 11.3851
40 517875 5.7690844558 129.3081190778 0.8419 12.0212
41 719607 6.1494878304 137.8344710917 0.745051 10.0998
42 999919 6.4872155905 145.4042929147 0.753119 7.79345
43 1.38942e+06 6.7465463196 151.2169255885 0.606171 8.11943
44 1.93035e+06 6.9038312207 154.7423055461 0.538188 5.58733
45 2.68229e+06 7.2361894434 162.1917746891 0.455156 7.75874
46 3.72713e+06 7.3612343904 164.9945290994 0.875155 9.74629
47 5.17899e+06 7.5127379614 168.3903264639 0.590642 7.99177
48 7.19639e+06 7.7779627598 174.3350686645 0.717962 6.25498
49 9.99984e+06 7.8726583856 176.4575741228 0.730551 5.09604
