# folder, Pressure [Pa], Abs. Loading [mol/kg framework], Abs. Loading [cm^3 (STP)/g framework], Error [mol/kg], Error [cm^3/g]
0 1 0.0000271771 0.0006091471 2.7453e-05 0.000621708
1 1.38929 0.0000395049 0.0008854612 3.9906e-05 0.00090372
2 1.93048 0.0000544243 0.0012198642 5.49768e-05 0.00124502
3 2.68247 0.0000757877 0.0016987040 7.65571e-05 0.00173373
4 3.72739 0.0001034551 0.0023188409 0.000104505 0.00236666
5 5.17935 0.0001442908 0.0032341315 0.000145756 0.00330082
6 7.19574 0.0002048790 0.0045921527 0.000206959 0.00468685
7 9.99874 0.0002832583 0.0063489455 0.000286134 0.00647987
8 13.8936 0.0003884646 0.0087070355 0.000392409 0.00888658
9 19.3057 0.0005441726 0.0121970716 0.000549697 0.0124486
10 26.8259 0.0007516432 0.0168473130 0.000759274 0.0171947
11 37.2697 0.0010414157 0.0233422654 0.00105199 0.0238236
12 51.7876 0.0014528547 0.0325642500 0.0014676 0.0332357
13 71.9607 0.0020204921 0.0452872605 0.00204101 0.0462211
14 99.992 0.0028012036 0.0627861097 0.00282964 0.0640808
15 138.942 0.0038718277 0.0867830513 0.00391114 0.0885726
16 193.066 0.0053913643 0.1208419096 0.0054461 0.600001
17 268.226 0.0075041745 0.1681983863 0.00758036 0.171667
18 372.71 0.0104661294 0.2345875696 0.0105724 0.239425
19 517.894 0.0145225232 0.3255074832 0.01467 0.835234
20 719.632 0.0202914253 0.4548115136 0.0204974 0.690485
21 999.955 0.0281524745 0.6310088804 0.0284383 1.03272
22 1389.25 0.0387075599 0.8675903077 0.0391005 1.67151
23 1930.41 0.0535629326 1.2005582729 0.0541067 2.1525
24 2682.38 0.0742425423 1.6640705421 0.0749963 2.41045
25 3727.26 0.1023789767 2.2947199001 0.103418 3.10583
26 5179.17 0.1407213266 3.1541244013 0.14215 2.83964
27 7196.64 0.1919915057 4.3032929530 0.193941 4.20595
28 9998.4 0.2612969196 5.8567028197 0.26395 5.05654
29 13893.1 0.3528764271 7.9093636785 0.356459 4.69102
30 19305 0.4726708183 10.5944322580 0.47747 5.20301
31 26825 0.6271312249 14.0565040645 0.591126 7.18813
32 37274.3 0.8195047511 18.3683596161 0.718165 7.15453
33 51785.2 1.0553494663 23.6545773431 0.675628 8.51651
34 71957.4 1.3322078733 29.8600749627 0.603395 9.90592
35 99987.5 1.6539543913 37.0716936148 0.674669 12.1319
36 138936 2.0073625232 44.9929749108 0.788236 8.89361
37 193057 2.3815564515 53.3801485456 0.736353 11.1965
38 268259 2.7665684108 62.0097972629 0.865621 10.8833
39 372697 3.1303693358 70.1640223733 0.739606 9.18694
40 517875 3.4675939186 77.7225659949 0.707732 8.40126
41 719607 3.7891768837 84.9305187747 0.817888 10.9325
42 999919 4.0891916597 91.6550426873 0.664073 7.3
43 1.38942e+06 4.3750412074 98.0620675170 0.544602 8.44705
44 1.93035e+06 4.6594485471 104.4367667315 0.697375 6.94777
45 2.68229e+06 4.9270859286 110.4355845102 0.714811 8.67817
46 3.72713e+06 5.1902446904 116.3340186157 0.644847 8.31372
47 5.17899e+06 5.4479050606 122.1092119025 0.566377 7.0093
48 7.19639e+06 5.6956487272 127.6621324387 0.769607 8.80951
49 9.99984e+06 5.9365101409 133.0607943233 0.757792 7.56946
