# folder, Pressure [Pa], Abs. Loading [mol/kg framework], Abs. Loading [cm^3 (STP)/g framework], Error [mol/kg], Error [cm^3/g]
0 1 0.0000151295 0.0003391128 1.52831e-05 0.000346106
1 1.38929 0.0000219238 0.0004913996 2.21464e-05 0.000501533
2 1.93048 0.0000310996 0.0006970652 3.14153e-05 0.000711439
3 2.68247 0.0000416762 0.0009341302 4.20993e-05 0.000953393
4 3.72739 0.0000585569 0.0013124922 5.91514e-05 0.00133956
5 5.17935 0.0000818115 0.0018337211 8.26421e-05 0.00187153
6 7.19574 0.0001105996 0.0024789775 0.000111722 0.0025301
7 9.99874 0.0001531864 0.0034335173 0.000154742 0.00350432
8 13.8936 0.0002185376 0.0048982962 0.000220756 0.611392
9 19.3057 0.0003122566 0.0069989117 0.000315427 0.00714323
10 26.8259 0.0004332228 0.0097102443 0.000437621 0.00991048
11 37.2697 0.0006004881 0.0134593248 0.000606585 0.0137369
12 51.7876 0.0008321939 0.0186527748 0.000840643 0.0190374
13 71.9607 0.0011625219 0.0260567379 0.00117432 0.026594
14 99.992 0.0016217310 0.0363494398 0.0016382 0.037099
15 138.942 0.0022720204 0.0509250110 0.00229509 0.0519751
16 193.066 0.0031612303 0.0708557387 0.00319332 0.0723168
17 268.226 0.0043778262 0.0981244910 0.00442227 0.100148
18 372.71 0.0060934864 0.1365792562 0.00615535 0.837342
19 517.894 0.0084445166 0.1892751897 0.00853025 1.01013
20 719.632 0.0117101826 0.2624717488 0.0118291 0.267884
21 999.955 0.0163510244 0.3664914649 0.016517 0.840635
22 1389.25 0.0226879141 0.5085263555 0.0229183 2.00182
23 1930.41 0.0314562445 0.7050595014 0.0317756 1.05547
24 2682.38 0.0436410459 0.9781693448 0.0440841 1.28412
25 3727.26 0.0603817257 1.3533945346 0.0609948 1.82851
26 5179.17 0.0831511711 1.8637483314 0.0839954 2.02931
27 7196.64 0.1146257671 2.5692191641 0.11579 3.26702
28 9998.4 0.1576607915 3.5338051567 0.159261 3.09643
29 13893.1 0.2157214658 4.8351757036 0.217912 3.78605
30 19305 0.2938324737 6.5859539386 0.310668 4.38045
31 26825 0.3974639789 8.9087479838 0.411791 6.69183
32 37274.3 0.5327846253 11.9418216699 0.533198 5.53263
33 51785.2 0.7043133779 15.7864629706 0.656603 6.31152
34 71957.4 0.9208212989 20.6392662607 0.633604 7.91633
35 99987.5 1.1858900232 26.5805102192 0.629959 10.1796
36 138936 1.4953814155 33.5174427813 0.611085 10.2475
37 193057 1.8490396048 41.4443288586 0.803899 10.3623
38 268259 2.2307657253 50.0003288663 0.849427 10.2551
39 372697 2.6240010719 58.8142963883 0.759012 10.2615
40 517875 3.0137331629 67.5497420240 0.751815 8.80361
41 719607 3.3790271480 75.7374325454 0.811646 7.63782
42 999919 3.7258038548 83.5100772407 0.822866 11.8921
43 1.38942e+06 4.0531331677 90.8468285215 0.580686 9.85728
44 1.93035e+06 4.3692041524 97.9312359090 0.639368 10.9058
45 2.68229e+06 4.6751708557 104.7891661750 0.675223 7.83951
46 3.72713e+06 4.9752461498 111.5150465388 0.751786 8.27632
47 5.17899e+06 5.2555028863 117.7967142345 0.754972 8.80055
48 7.19639e+06 5.5348955588 124.0590148206 0.791851 9.63764
49 9.99984e+06 5.8052477095 130.1186813700 0.724298 6.67346
