# folder, Pressure [Pa], Abs. Loading [mol/kg framework], Abs. Loading [cm^3 (STP)/g framework], Error [mol/kg], Error [cm^3/g]
0 1 0.0000041981 0.0000940962 4.24072e-06 9.60365e-05
1 1.22616 0.0000060049 0.0001345937 6.06587e-06 0.000137369
2 1.50371 0.0000072075 0.0001615494 7.28067e-06 0.000164881
3 1.84411 0.0000088928 0.0001993223 8.98308e-06 0.000203432
4 2.26154 0.0000104014 0.0002331359 1.0507e-05 0.000237943
5 2.77349 0.0000136049 0.0003049396 1.3743e-05 0.000311228
6 3.40076 0.0000152089 0.0003408928 1.53633e-05 0.000347922
7 4.1706 0.0000192743 0.0004320139 1.947e-05 0.000440922
8 5.11465 0.0000235923 0.0005287974 2.38318e-05 0.000539702
9 6.2724 0.0000257877 0.0005780055 2.60495e-05 0.000589924
10 7.6923 0.0000298566 0.0006692060 3.01597e-05 0.000683006
11 9.43352 0.0000368638 0.0008262637 3.72381e-05 0.000843302
12 11.5671 0.0000428938 0.0009614206 4.33293e-05 0.000981246
13 14.1855 0.0000481383 0.0010789697 4.8627e-05 0.00110122
14 17.3967 0.0000593841 0.0013310343 5.9987e-05 0.00135848
15 21.3346 0.0000824440 0.0018478967 8.3281e-05 0.001886
16 26.1641 0.0000993121 0.0022259790 0.00010032 0.00227188
17 32.0815 0.0001147226 0.0025713895 0.000115887 0.00262441
18 39.3435 0.0001429411 0.0032038793 0.000144392 0.00326995
19 48.2497 0.0001786929 0.0040052184 0.000180507 0.00408781
20 59.1715 0.0002241285 0.0050236106 0.000226404 0.0051272
21 72.5662 0.0002770744 0.0062089038 0.000279887 0.00633694
22 88.9923 0.0003343205 0.0074934521 0.000337715 0.00764797
23 109.12 0.0004360318 0.0097732065 0.000440459 0.00997474
24 133.821 0.0005259188 0.0117879320 0.000531258 0.012031
25 164.114 0.0006447936 0.0144523876 0.00065134 0.0147504
26 201.262 0.0007707644 0.0172758937 0.00077859 0.0176321
27 246.82 0.0009567946 0.0214455709 0.000966508 0.0218878
28 302.693 0.0011777578 0.0263982353 0.00118972 0.607558
29 371.151 0.0014160915 0.0317402410 0.00143047 0.606724
30 455.17 0.0017535630 0.0393043176 0.00177137 0.0401148
31 558.201 0.0021339865 0.0478311210 0.00215565 0.0488174
32 684.563 0.0026469882 0.0593295295 0.00267386 0.0605529
33 839.52 0.0032566932 0.0729954418 0.00328976 0.0745007
34 1029.39 0.0039563956 0.0886785549 0.00399656 0.844898
35 1262.41 0.0048116614 0.1078484626 0.00486051 0.110072
36 1548.17 0.0058566613 0.1312710636 0.00591612 0.133978
37 1898.63 0.0071504359 0.1602696975 0.00722303 0.601406
38 2328.41 0.0088367007 0.1980655959 0.00892642 0.831764
39 2855.49 0.0108265927 0.2426669860 0.0109365 1.00217
40 3501.3 0.0133016173 0.2981421280 0.0134367 0.30429
41 4293.9 0.0161512229 0.3620131183 0.0163152 0.648853
42 5265.86 0.0199797967 0.4478266783 0.0201826 0.999017
43 6457.9 0.0246808450 0.5531958622 0.0249314 1.22568
44 7919.71 0.0299012945 0.6702068889 0.0302049 1.77647
45 9712.41 0.0369278129 0.8276991023 0.0373027 1.10357
46 11909.1 0.0451247737 1.0114255829 0.0455829 2.25127
47 14604.9 0.0559037270 1.2530247808 0.0564713 1.34934
48 17911 0.0678946770 1.5217896440 0.068584 1.88269
49 21965.3 0.0823639776 1.8461041960 0.0832002 1.55733
50 26937.6 0.1006849663 2.2567503919 0.101707 2.12529
51 33029.9 0.1232948851 2.7635285649 0.124547 2.72372
52 40506.6 0.1497378421 3.3562203610 0.151258 3.37028
53 49676.1 0.1851614297 4.1502037953 0.187041 3.99822
54 60920.8 0.2191472463 4.9119610637 0.221372 3.36416
55 74711.6 0.2675254243 5.9963083732 0.287262 4.02915
56 91623.2 0.3250183295 7.2849529542 0.328318 5.72083
57 112346 0.3872662430 8.6801761779 0.391198 5.38202
58 137777 0.4645565971 10.4125602997 0.470812 4.63594
59 168966 0.5585401646 12.5191057045 0.555676 6.97062
60 207212 0.6715477698 15.0520554248 0.613316 9.04116
61 254120 0.7867326716 17.6338070215 0.709114 8.39608
62 311642 0.9337584802 20.9292399298 0.668647 7.23035
63 382124 1.0906267399 24.4452812987 0.712204 8.15994
64 468626 1.2683607309 28.4290066619 0.684643 8.30567
65 574704 1.4542280692 32.5950326746 0.674857 11.6316
66 704800 1.6768963067 37.5859131502 0.640139 8.38069
67 864339 1.8983203891 42.5489071628 0.705896 9.06463
68 1.05983e+06 2.1203170852 47.5247357241 0.833211 13.3981
69 1.29973e+06 2.3795041267 53.3341477874 0.769737 11.3231
70 1.59394e+06 2.6166939595 58.6505149472 0.757035 8.70205
71 1.95476e+06 2.8816905218 64.5901414684 0.6827 9.59284
72 2.39724e+06 3.1398882490 70.3773790631 0.846765 11.4563
73 2.93991e+06 3.3590333465 75.2892919642 0.824918 9.77188
74 3.60481e+06 3.6081880031 80.8738383935 0.870653 11.0592
75 4.42084e+06 3.8746659296 86.8466681753 0.912036 8.09417
76 5.42154e+06 4.0860598917 91.5848473155 0.656587 9.61566
77 6.64882e+06 4.3199166347 96.8265066829 0.621984 9.2576
78 8.15384e+06 4.5453454278 101.8792621842 0.79256 7.88354
79 9.99984e+06 4.8008600769 107.6063613317 0.728914 9.82218
